#           x           U_x           U_y           U_z
            0             0             0             0
  0.000362954    0.00157602   -0.00366672  -2.98406e-19
  0.000725907    0.00539839   -0.00591154   2.63959e-19
   0.00108886    0.00441195   -0.00404493  -1.12882e-20
   0.00145181    0.00867166   -0.00523467             0
   0.00181477     0.0107535   -0.00314779             0
   0.00217772    0.00637746  -0.000464142   9.15081e-21
   0.00254068     0.0112108  -0.000639115             0
   0.00290363      0.010006    0.00164946  -1.38294e-19
   0.00326658    0.00331956    0.00292128  -1.45786e-20
   0.00362954    0.00750866    0.00339321             0
   0.00399249    0.00402048    0.00456493             0
   0.00435544   -0.00243395     0.0046105  -8.88788e-21
    0.0047184   -0.00020992    0.00528693             0
   0.00508135   -0.00499751    0.00572413             0
   0.00544431    -0.0070601    0.00556629  -1.86366e-21
   0.00580726    -0.0102348    0.00601914    7.9526e-20
   0.00617021    -0.0158622    0.00626033             0
   0.00653317    -0.0155373    0.00623888             0
   0.00689612    -0.0218449    0.00648913             0
   0.00725907    -0.0235302    0.00658391             0
   0.00762203    -0.0281639    0.00672032             0
   0.00798498    -0.0348074    0.00695602             0
   0.00834793    -0.0267616    0.00690551   2.00736e-21
   0.00871089    -0.0417664    0.00719437   4.31148e-20
   0.00907384    -0.0490325    0.00743223             0
    0.0094368    -0.0490325    0.00743223             0
   0.00979975    -0.0565977    0.00766657             0
    0.0101627    -0.0369928    0.00755489   4.79964e-21
    0.0105257    -0.0644525    0.00789378             0
    0.0108886    -0.0725887    0.00810935             0
    0.0112516    -0.0725887    0.00810935             0
    0.0116145    -0.0809948    0.00830716             0
    0.0119775     -0.056784    0.00815189  -3.31682e-21
    0.0123404    -0.0896599    0.00847963             0
    0.0127034    -0.0852714    0.00851043   1.19249e-21
    0.0130663    -0.0985704    0.00861826             0
    0.0134293     -0.107711    0.00871451   2.50725e-20
    0.0137922    -0.0987416    0.00867161   1.99208e-20
    0.0141552     -0.117062    0.00876233  -2.39766e-20
    0.0145181    -0.0696134    0.00859811  -2.07276e-22
    0.0148811     -0.126605     0.0087601   2.30158e-20
    0.0152441     -0.119088    0.00870303   1.65652e-20
     0.015607     -0.136318     0.0087165   2.21713e-20
      0.01597     -0.146186    0.00865439             0
    0.0163329     -0.146186    0.00865439             0
    0.0166959     -0.156207     0.0086204             0
    0.0170588     -0.121475    0.00875071  -4.72378e-22
    0.0174218     -0.166409    0.00869568  -2.02001e-20
    0.0177847     -0.103282    0.00899752  -6.10271e-21
    0.0181477     -0.176832    0.00901476  -1.97049e-20
    0.0185106     -0.150812     0.0094654  -1.77281e-21
    0.0188736     -0.187488    0.00966191             0
    0.0192365      -0.19837     0.0106915             0
    0.0195995      -0.19837     0.0106915             0
    0.0199625     -0.209479     0.0123853  -1.85289e-20
    0.0203254     -0.209479     0.0123853  -1.85289e-20
    0.0206884      -0.22092     0.0146349             0
    0.0210513      -0.20961     0.0142129             0
    0.0214143     -0.232814     0.0170043             0
    0.0217772     -0.194658      0.015036   2.53042e-22
    0.0221402     -0.245154     0.0205857   1.77257e-20
    0.0225031     -0.182055     0.0158714   7.20486e-21
    0.0228661     -0.257988     0.0241601             0
     0.023229     -0.172309     0.0158657   2.96468e-21
     0.023592     -0.271939     0.0263741   1.76193e-20
    0.0239549     -0.165879     0.0156971   6.26431e-21
    0.0243179     -0.286311      0.032587   3.81249e-20
    0.0246809     -0.166152     0.0148287   1.58074e-21
    0.0250438     -0.301729     0.0245385             0
    0.0254068     -0.179989      0.011473             0
    0.0257697     -0.316988    0.00747084             0
    0.0261327     -0.187431    0.00981289  -5.70264e-21
    0.0264956     -0.328314    0.00877182             0
    0.0268586     -0.188189       0.01054  -1.17787e-20
    0.0272215     -0.341375     0.0114877             0
    0.0275845     -0.204216     0.0111451  -1.07984e-20
    0.0279474     -0.355798     0.0127564             0
    0.0283104     -0.231386     0.0115754   1.82588e-21
    0.0286733     -0.370769     0.0126259   4.18597e-20
    0.0290363     -0.267067     0.0117512   2.17915e-20
    0.0293992     -0.385595     0.0127073    4.0667e-20
    0.0297622     -0.311948     0.0120633   2.27229e-20
    0.0301252     -0.400625     0.0127397   3.95474e-20
    0.0304881     -0.367019     0.0124408   3.24891e-20
    0.0308511     -0.415723     0.0127254             0
     0.031214     -0.415723     0.0127254             0
     0.031577     -0.430853     0.0126705  -3.75086e-20
    0.0319399     -0.430853     0.0126705  -3.75086e-20
    0.0323029     -0.445997     0.0125912             0
    0.0326658     -0.445997     0.0125912             0
    0.0330288     -0.412329     0.0121272   2.81212e-20
    0.0333917      -0.46113      0.012495   3.57105e-20
    0.0337547     -0.333353      0.011342    1.8304e-20
    0.0341176     -0.476242     0.0123884   3.48903e-20
    0.0344806     -0.275856     0.0107593   9.08515e-21
    0.0348436     -0.491324     0.0122742             0
    0.0352065     -0.392794     0.0114957             0
    0.0355695     -0.506367     0.0121546             0
    0.0359324     -0.506367     0.0121546             0
    0.0362954     -0.521363     0.0120307             0
    0.0366583     -0.521363     0.0120307             0
    0.0370213     -0.486628     0.0115786   2.61708e-20
    0.0373842     -0.536308     0.0119031   3.20409e-20
    0.0377472     -0.341404     0.0104388   1.34425e-21
    0.0381101     -0.551195     0.0117718             0
    0.0384731     -0.403283     0.0107272   2.56429e-21
     0.038836     -0.566018     0.0116368             0
     0.039199     -0.566018     0.0116368             0
     0.039562     -0.580772     0.0114978             0
    0.0399249     -0.580772     0.0114978             0
    0.0402879     -0.470929     0.0106246   1.87501e-21
    0.0406508     -0.595447     0.0113544             0
    0.0410138       -0.3631    0.00983715    3.5891e-21
    0.0413767     -0.610035     0.0112061             0
    0.0417397     -0.596098     0.0111174  -2.03332e-22
    0.0421026     -0.624533     0.0110524             0
    0.0424656     -0.624533     0.0110524             0
    0.0428285     -0.496431     0.0101216  -1.93397e-21
    0.0431915     -0.638926     0.0108928             0
    0.0435544     -0.427282    0.00961038   2.85114e-21
    0.0439174     -0.653207      0.010727             0
    0.0442804     -0.653207      0.010727             0
    0.0446433     -0.667365     0.0105541  -2.73575e-20
    0.0450063     -0.667365     0.0105541  -2.73575e-20
    0.0453692     -0.397515    0.00895825  -4.62561e-21
    0.0457322     -0.681384     0.0103742             0
    0.0460951      -0.61591     0.0100058  -7.88185e-22
    0.0464581     -0.695261     0.0101865             0
     0.046821     -0.695261     0.0101865             0
     0.047184      -0.50872    0.00904752   9.63455e-21
    0.0475469     -0.708979     0.0099911   2.61354e-20
    0.0479099     -0.568967    0.00924221   1.65309e-20
    0.0482728      -0.72252    0.00978739   2.57535e-20
    0.0486358      -0.72252    0.00978739   2.57535e-20
    0.0489987     -0.564508    0.00881491   6.08074e-22
    0.0493617     -0.735879    0.00957542             0
    0.0497247     -0.576748    0.00876776     -2.22e-21
    0.0500876      -0.74904    0.00935483  -2.50215e-20
    0.0504506      -0.74904    0.00935483  -2.50215e-20
    0.0508135     -0.559411    0.00828217   9.42403e-21
    0.0511765     -0.761984    0.00912571   2.46694e-20
    0.0515394     -0.644581    0.00856176    1.7277e-20
    0.0519024     -0.774701    0.00888774             0
    0.0522653     -0.774701    0.00888774             0
    0.0526283     -0.488625    0.00748002  -6.61239e-21
    0.0529912      -0.78717    0.00864119  -2.39886e-20
    0.0533542     -0.777105    0.00859558  -2.34873e-20
    0.0537171     -0.799385    0.00838581             0
    0.0540801     -0.799385    0.00838581             0
    0.0544431     -0.463325    0.00690917  -3.04992e-21
     0.054806     -0.811322    0.00812202             0
     0.055169     -0.811322    0.00812202             0
    0.0555319     -0.668028    0.00731136   1.47726e-20
    0.0558949     -0.822971    0.00784965   2.30131e-20
    0.0562578     -0.693427    0.00731612   1.60386e-20
    0.0566208     -0.834315    0.00756909             0
    0.0569837     -0.834315    0.00756909             0
    0.0573467     -0.422304    0.00592878   2.23288e-21
    0.0577096     -0.845335    0.00728019  -2.23844e-20
    0.0580726     -0.845335    0.00728019  -2.23844e-20
    0.0584355     -0.695388    0.00649288   8.49408e-22
    0.0587985      -0.85602    0.00698346             0
    0.0591615     -0.757499    0.00661891  -5.11481e-22
    0.0595244     -0.866355    0.00667872   2.17661e-20
    0.0598874     -0.866355    0.00667872   2.17661e-20
    0.0602503     -0.532309    0.00548993   3.99935e-21
    0.0606133     -0.876315     0.0063664   2.14592e-20
    0.0609762     -0.876315     0.0063664   2.14592e-20
    0.0613392     -0.558506    0.00518663   9.51466e-21
    0.0617021     -0.885894     0.0060462    2.1153e-20
    0.0620651     -0.885894     0.0060462    2.1153e-20
     0.062428     -0.762389    0.00538942   3.31321e-20
     0.062791     -0.895074    0.00571844   4.16939e-20
    0.0631539     -0.807278    0.00544389   3.35415e-20
    0.0635169     -0.903837    0.00538272  -4.10801e-20
    0.0638798     -0.903837    0.00538272  -4.10801e-20
    0.0642428     -0.650687    0.00462856  -2.27053e-20
    0.0646058     -0.912171    0.00503889             0
    0.0649687     -0.912171    0.00503889             0
    0.0653317     -0.511751    0.00390645             0
    0.0656946     -0.920058    0.00468581             0
    0.0660576     -0.920058    0.00468581             0
    0.0664205     -0.525496    0.00357639             0
    0.0667835     -0.927477    0.00432246             0
    0.0671464     -0.927477    0.00432246             0
    0.0675094      -0.63421    0.00344255  -1.16798e-20
    0.0678723     -0.934418    0.00394661  -3.85915e-20
    0.0682353     -0.934418    0.00394661  -3.85915e-20
    0.0685982     -0.723087    0.00323183  -1.97396e-20
    0.0689612     -0.940857    0.00355545  -3.79555e-20
    0.0693242     -0.940857    0.00355545  -3.79555e-20
    0.0696871     -0.791856    0.00294851   2.52707e-20
    0.0700501     -0.946783    0.00314553   3.73123e-20
     0.070413     -0.946783    0.00314553   3.73123e-20
     0.070776     -0.840311    0.00259772   4.35272e-22
    0.0711389     -0.952163    0.00271294             0
    0.0715019     -0.932008    0.00267835   -2.9986e-22
    0.0718648     -0.868322     0.0021867  -3.07458e-20
    0.0722278     -0.956978    0.00225367  -3.60008e-20
    0.0725907     -0.925484     0.0022078  -3.42452e-20
    0.0729537     -0.875833    0.00172806  -3.07309e-20
    0.0733166     -0.961195     0.0017662  -3.53315e-20
    0.0736796     -0.938272    0.00173956  -3.38376e-20
    0.0740426     -0.862877    0.00124556  -2.82006e-20
    0.0744055      -0.96479    0.00125759   -3.4653e-20
    0.0747685      -0.96479    0.00125759   -3.4653e-20
    0.0751314     -0.829569   0.000777639  -4.97079e-22
    0.0754944     -0.967729   0.000750795             0
    0.0758573     -0.967729   0.000750795             0
    0.0762203     -0.776118   0.000368721             0
    0.0765832     -0.969958   0.000283878             0
    0.0769462     -0.969958   0.000283878             0
    0.0773091     -0.702858   4.55165e-05             0
    0.0776721     -0.971443  -0.000109337             0
     0.078035     -0.971443  -0.000109337             0
     0.078398     -0.610325  -0.000211823   -9.7659e-21
     0.078761     -0.972398   -0.00045484  -3.17975e-20
    0.0791239     -0.972398   -0.00045484  -3.17975e-20
    0.0794869     -0.498952  -0.000423861    -1.586e-21
    0.0798498      -0.97278  -0.000791316             0
    0.0802128      -0.97278  -0.000791316             0
    0.0805757     -0.585513  -0.000709673  -3.42335e-21
    0.0809387     -0.972606   -0.00112295             0
    0.0813016     -0.972606   -0.00112295             0
    0.0816646       -0.7337   -0.00104638  -3.41589e-21
    0.0820275     -0.971875   -0.00145326   2.94478e-20
    0.0823905     -0.971875   -0.00145326   2.94478e-20
    0.0827534     -0.898993   -0.00142182   2.53294e-20
    0.0831164     -0.858945   -0.00166004   3.19146e-22
    0.0834793     -0.970576   -0.00178264             0
    0.0838423     -0.970576   -0.00178264             0
    0.0842053     -0.669494    -0.0017485   2.50042e-21
    0.0845682      -0.96871   -0.00211094             0
    0.0849312      -0.96871   -0.00211094             0
    0.0852941     -0.483219   -0.00179048   5.17656e-21
    0.0856571     -0.966269   -0.00243817   2.68962e-20
      0.08602     -0.966269   -0.00243817   2.68962e-20
     0.086383     -0.704171   -0.00223405   1.54455e-20
    0.0867459     -0.963249   -0.00276379             0
    0.0871089     -0.963249   -0.00276379             0
    0.0874718     -0.939745   -0.00274263    1.6895e-22
    0.0878348     -0.773661   -0.00279609   1.34671e-21
    0.0881977     -0.959643    -0.0030879             0
    0.0885607     -0.959643    -0.0030879             0
    0.0889237     -0.514966   -0.00266334  -3.37141e-21
    0.0892866      -0.95545   -0.00340993  -2.41142e-20
    0.0896496      -0.95545   -0.00340993  -2.41142e-20
    0.0900125     -0.691819   -0.00310571  -1.61147e-20
    0.0903755     -0.950669   -0.00373006  -2.31306e-20
    0.0907384     -0.950669   -0.00373006  -2.31306e-20
    0.0911014     -0.950669   -0.00373006  -2.31306e-20
    0.0914643     -0.694961   -0.00355716  -2.35236e-21
    0.0918273       -0.9453   -0.00404766             0
    0.0921902       -0.9453   -0.00404766             0
    0.0925532     -0.531357   -0.00345846  -1.49115e-21
    0.0929161     -0.939334   -0.00436296   2.10719e-20
    0.0932791     -0.939334   -0.00436296   2.10719e-20
    0.0936421     -0.847109   -0.00421862   1.72404e-20
     0.094005     -0.787383   -0.00434926   3.08757e-22
     0.094368     -0.932777   -0.00467528             0
    0.0947309     -0.932777   -0.00467528             0
    0.0950939      -0.45411   -0.00385626   1.69811e-21
    0.0954568     -0.925627   -0.00498485  -1.88832e-20
    0.0958198     -0.925627   -0.00498485  -1.88832e-20
    0.0961827     -0.798576   -0.00474819  -1.41369e-20
    0.0965457      -0.79755    -0.0049846  -2.76119e-22
    0.0969086     -0.917885   -0.00529103             0
    0.0972716     -0.917885   -0.00529103             0
    0.0976345     -0.454824   -0.00435583  -9.30991e-22
    0.0979975      -0.90955   -0.00559403  -1.65542e-20
    0.0983605      -0.90955   -0.00559403  -1.65542e-20
    0.0987234     -0.824407   -0.00540817  -1.35084e-20
    0.0990864     -0.731732   -0.00540764  -9.62253e-21
    0.0994493     -0.900623   -0.00589323  -1.53335e-20
    0.0998123     -0.900623   -0.00589323  -1.53335e-20
     0.100175     -0.527291   -0.00501505  -2.06988e-21
     0.100538      -0.89111   -0.00618883             0
     0.100901      -0.89111   -0.00618883             0
     0.101264      -0.89111   -0.00618883             0
     0.101627     -0.597096   -0.00556249   1.08065e-21
      0.10199     -0.881012   -0.00648019             0
     0.102353     -0.881012   -0.00648019             0
     0.102716     -0.664424   -0.00589266   1.54355e-21
     0.103079     -0.819633   -0.00659411   3.69975e-22
     0.103442     -0.870331   -0.00676767             0
     0.103805     -0.870331   -0.00676767             0
     0.104168     -0.437746   -0.00551109   2.75508e-21
     0.104531     -0.859076   -0.00705078             0
     0.104894     -0.859076   -0.00705078             0
     0.105257     -0.858336   -0.00704848   2.23205e-24
      0.10562     -0.583469   -0.00631866   8.16627e-22
     0.105982      -0.84725   -0.00732969             0
     0.106345      -0.84725   -0.00732969             0
     0.106708     -0.670014   -0.00674204             0
     0.107071     -0.739642   -0.00721779             0
     0.107434     -0.834857   -0.00760363             0
     0.107797     -0.834857   -0.00760363             0
      0.10816     -0.506082   -0.00644122             0
     0.108523     -0.821907   -0.00787276             0
     0.108886     -0.821907   -0.00787276             0
     0.109249     -0.821907   -0.00787276             0
     0.109612     -0.421034   -0.00638331  -1.00005e-21
     0.109975     -0.808405   -0.00813641  -4.00576e-21
     0.110338     -0.808405   -0.00813641  -4.00576e-21
     0.110701     -0.808405   -0.00813641  -4.00576e-21
     0.111064     -0.520093   -0.00708358   3.39629e-22
     0.111427     -0.794353   -0.00839517   2.36586e-21
      0.11179     -0.794353   -0.00839517   2.36586e-21
     0.112153     -0.704415   -0.00801162   1.88533e-21
     0.112516     -0.597557   -0.00772786   6.80575e-23
     0.112879     -0.779769   -0.00864863             0
     0.113242     -0.779769   -0.00864863             0
     0.113605     -0.614567    -0.0078997   3.83931e-23
     0.113967     -0.654523   -0.00830931   2.65794e-23
      0.11433     -0.764653   -0.00889762             0
     0.114693     -0.764653   -0.00889762             0
     0.115056     -0.544049   -0.00783456   2.25478e-22
     0.115419     -0.692141   -0.00881998   6.04963e-23
     0.115782     -0.749019    -0.0091412             0
     0.116145     -0.749019    -0.0091412             0
     0.116508     -0.491747   -0.00782393    2.0652e-22
     0.116871     -0.711596   -0.00925235   1.78143e-23
     0.117234     -0.732877   -0.00937943             0
     0.117597     -0.732877   -0.00937943             0
      0.11796     -0.456502   -0.00787627  -6.26015e-22
     0.118323      -0.71411   -0.00959858  -1.34247e-20
     0.118686     -0.716232   -0.00961198  -1.34973e-20
     0.119049     -0.716232   -0.00961198  -1.34973e-20
     0.119412     -0.437118   -0.00799965  -2.68724e-21
     0.119775     -0.699101     -0.009839             0
     0.120138     -0.699101     -0.009839             0
     0.120501     -0.699101     -0.009839             0
     0.120864     -0.432366    -0.0082021   2.48278e-21
     0.121227     -0.673402    -0.0100032   2.13387e-20
     0.121589     -0.681498    -0.0100605    2.1761e-20
     0.121952     -0.681498    -0.0100605    2.1761e-20
     0.122315     -0.440986    -0.0084921   5.08177e-21
     0.122678     -0.632781    -0.0100479  -2.40803e-20
     0.123041     -0.663428    -0.0102777    -2.613e-20
     0.123404     -0.663428    -0.0102777    -2.613e-20
     0.123767      -0.46169   -0.00887889  -1.38368e-20
      0.12413      -0.58043   -0.00997638  -9.10014e-22
     0.124493     -0.644909    -0.0104893             0
     0.124856     -0.644909    -0.0104893             0
     0.125219     -0.493169   -0.00937023             0
     0.125582     -0.517701   -0.00978114             0
     0.125945     -0.625951     -0.010695             0
     0.126308     -0.625951     -0.010695             0
     0.126671     -0.534093   -0.00997419             0
     0.127034     -0.445973   -0.00945492             0
     0.127397      -0.60657    -0.0108954             0
      0.12776      -0.60657    -0.0108954             0
     0.128123     -0.583121    -0.0106994   2.27603e-22
     0.128486     -0.366628   -0.00899002   1.48217e-20
     0.128849     -0.586785    -0.0110904   4.53987e-20
     0.129212     -0.586785    -0.0110904   4.53987e-20
     0.129574     -0.586785    -0.0110904   4.53987e-20
     0.129937     -0.281055   -0.00837886   1.32895e-20
       0.1303     -0.566605    -0.0112803   5.07184e-20
     0.130663     -0.566605    -0.0112803   5.07184e-20
     0.131026     -0.566605    -0.0112803   5.07184e-20
     0.131389     -0.339316   -0.00912143   2.40626e-20
     0.131752     -0.524134    -0.0112277   1.15747e-21
     0.132115     -0.546044    -0.0114651             0
     0.132478     -0.546044    -0.0114651             0
     0.132841     -0.419562    -0.0101822   4.47607e-21
     0.133204     -0.415153    -0.0103719   4.12954e-20
     0.133567     -0.525127    -0.0116449   6.20468e-20
      0.13393     -0.525127    -0.0116449   6.20468e-20
     0.134293     -0.502446    -0.0113989   5.84058e-20
     0.134656     -0.304161   -0.00934639    2.8852e-20
     0.135019     -0.503861    -0.0118196   6.80853e-20
     0.135382     -0.503861    -0.0118196   6.80853e-20
     0.135745     -0.503861    -0.0118196   6.80853e-20
     0.136108     -0.270933   -0.00911565   1.57895e-20
     0.136471     -0.480799      -0.01197  -7.39251e-20
     0.136834     -0.482264    -0.0119895  -7.43954e-20
     0.137196     -0.482264    -0.0119895  -7.43954e-20
     0.137559     -0.369923    -0.0105912  -4.49865e-20
     0.137922     -0.355002    -0.0106522   -2.3828e-21
     0.138285     -0.460356    -0.0121546             0
     0.138648     -0.460356    -0.0121546             0
     0.139011     -0.460356    -0.0121546             0
     0.139374     -0.231411    -0.0091412             0
     0.139737     -0.438149    -0.0123153             0
       0.1401     -0.438149    -0.0123153             0
     0.140463     -0.438149    -0.0123153             0
     0.140826     -0.291008    -0.0101987  -1.00086e-20
     0.141189     -0.355032    -0.0114668  -7.33849e-20
     0.141552      -0.41566    -0.0124716  -9.51509e-20
     0.141915      -0.41566    -0.0124716  -9.51509e-20
     0.142278     -0.396154     -0.012169  -8.85037e-20
     0.142641      -0.22523   -0.00961542  -1.33323e-20
     0.143004      -0.39291    -0.0126239             0
     0.143367      -0.39291    -0.0126239             0
      0.14373      -0.39291    -0.0126239             0
     0.144093     -0.254079    -0.0102957             0
     0.144456      -0.31617    -0.0117251             0
     0.144819     -0.369909    -0.0127724             0
     0.145181     -0.369909    -0.0127724             0
     0.145544     -0.361267    -0.0126153   4.58623e-22
     0.145907     -0.185859   -0.00950057    9.6058e-21
      0.14627     -0.346677    -0.0129173             0
     0.146633     -0.346677    -0.0129173             0
     0.146996     -0.346677    -0.0129173             0
     0.147359     -0.247512    -0.0109568   5.59414e-21
     0.147722     -0.250244    -0.0113613   4.67403e-21
     0.148085     -0.323229     -0.013059             0
     0.148448     -0.323229     -0.013059             0
     0.148811     -0.323229     -0.013059             0
     0.149174     -0.152829    -0.0093822    2.1322e-20
     0.149537     -0.296552    -0.0131204   1.35173e-19
       0.1499     -0.299581    -0.0131979   1.37311e-19
     0.150263     -0.299581    -0.0131979   1.37311e-19
     0.150626     -0.259804    -0.0122573   1.13916e-19
     0.150989     -0.168899    -0.0103085   6.73006e-20
     0.151352     -0.275748    -0.0133342   1.47166e-19
     0.151715     -0.275748    -0.0133342   1.47166e-19
     0.152078     -0.275748    -0.0133342   1.47166e-19
     0.152441     -0.184399    -0.0109555   7.08819e-20
     0.152804     -0.197846    -0.0117684   4.65414e-21
     0.153166     -0.251747    -0.0134686             0
     0.153529     -0.251747    -0.0134686             0
     0.153892     -0.251747    -0.0134686             0
     0.154255     -0.123378   -0.00976737   2.39706e-20
     0.154618     -0.213481    -0.0131016   1.52889e-19
     0.154981     -0.227592    -0.0136013   1.68636e-19
     0.155344     -0.227592    -0.0136013   1.68636e-19
     0.155707     -0.217729    -0.0132844   1.58617e-19
      0.15607     -0.100924   -0.00962362   2.53369e-20
     0.156433     -0.203297    -0.0137331             0
     0.156796     -0.203297    -0.0137331             0
     0.157159     -0.203297    -0.0137331             0
     0.157522     -0.167153    -0.0124284             0
     0.157885     -0.108093    -0.0106055             0
     0.158248     -0.178877    -0.0138643             0
     0.158611     -0.178877    -0.0138643             0
     0.158974     -0.178877    -0.0138643             0
     0.159337      -0.12639    -0.0117159   8.06278e-21
       0.1597     -0.106556    -0.0114345   1.05682e-19
     0.160063     -0.154345    -0.0139952   2.06118e-19
     0.160426     -0.154345    -0.0139952   2.06118e-19
     0.160788     -0.154345    -0.0139952   2.06118e-19
     0.161151    -0.0938944    -0.0111567   1.04563e-19
     0.161514    -0.0978628    -0.0121015     1.417e-20
     0.161877     -0.129715     -0.014126             0
      0.16224     -0.129715     -0.014126             0
     0.162603     -0.129715     -0.014126             0
     0.162966    -0.0681456    -0.0107611   2.56062e-20
     0.163329    -0.0835381    -0.0125978   1.70401e-19
     0.163692        -0.105    -0.0142582     2.355e-19
     0.164055        -0.105    -0.0142582     2.355e-19
     0.164418        -0.105    -0.0142582     2.355e-19
     0.164781     -0.047644    -0.0105401   7.71697e-20
     0.165144    -0.0650795    -0.0129171   5.89989e-21
     0.165507    -0.0802131     -0.014396             0
      0.16587    -0.0802131     -0.014396             0
     0.166233    -0.0802131     -0.014396             0
     0.166596    -0.0309163    -0.0105062             0
     0.166959    -0.0439533    -0.0130539             0
     0.167322    -0.0553651    -0.0145454             0
     0.167685    -0.0553651    -0.0145454             0
     0.168048    -0.0553651    -0.0145454             0
     0.168411     -0.016518    -0.0106707   3.29238e-20
     0.168773    -0.0215946    -0.0129853   2.12427e-19
     0.169136    -0.0304691    -0.0146909   2.88304e-19
     0.169499    -0.0304691    -0.0146909   2.88304e-19
     0.169862    -0.0304691    -0.0146909   2.88304e-19
     0.170225   -0.00303593    -0.0110296   1.26007e-19
     0.170588   0.000595605    -0.0126305   1.73141e-20
     0.170951   -0.00553777    -0.0147308             0
     0.171314   -0.00553777    -0.0147308             0
     0.171677   -0.00553777    -0.0147308             0
      0.17204     0.0109056    -0.0115312   2.72619e-20
     0.172403      0.021241    -0.0119008   1.80807e-19
     0.172766     0.0193961    -0.0145015   3.06191e-19
     0.173129     0.0193961    -0.0145015   3.06191e-19
     0.173492     0.0193961    -0.0145015   3.06191e-19
     0.173855     0.0266372    -0.0120739   1.92416e-19
     0.174218     0.0390308    -0.0109122   2.99353e-20
     0.174581     0.0443466    -0.0141034             0
     0.174944     0.0443466    -0.0141034             0
     0.175307     0.0443466    -0.0141034             0
      0.17567     0.0454763    -0.0126525             0
     0.176033     0.0526747   -0.00980345             0
     0.176395     0.0692916    -0.0137071             0
     0.176758     0.0692916    -0.0137071             0
     0.177121     0.0692916    -0.0137071             0
     0.177484     0.0686837    -0.0133312             0
     0.177847     0.0611379   -0.00866641             0
      0.17821     0.0911636    -0.0129022             0
     0.178573     0.0942226    -0.0133357             0
     0.178936     0.0942226    -0.0133357             0
     0.179299     0.0942226    -0.0133357             0
     0.179662     0.0787921   -0.00967677  -1.87069e-20
     0.180025      0.103657    -0.0114488  -1.93037e-19
     0.180388      0.119139    -0.0129866  -2.80042e-19
     0.180751      0.119139    -0.0129866  -2.80042e-19
     0.181114      0.119139    -0.0129866  -2.80042e-19
     0.181477      0.103455    -0.0107529   -1.5802e-19
      0.18184      0.108192   -0.00996005  -1.55555e-20
     0.182203      0.144046     -0.012656             0
     0.182566      0.144046     -0.012656             0
     0.182929      0.144046     -0.012656             0
     0.183292      0.136279    -0.0118819   4.02935e-21
     0.183655      0.103648   -0.00844384   3.97722e-20
     0.184018      0.165679    -0.0121446   2.58248e-19
      0.18438      0.168944    -0.0123394   2.69745e-19
     0.184743      0.168944    -0.0123394   2.69745e-19
     0.185106      0.168944    -0.0123394   2.69745e-19
     0.185469       0.12758   -0.00922008   9.20923e-20
     0.185832      0.161138    -0.0104354   9.36298e-21
     0.186195      0.193826    -0.0120322             0
     0.186558      0.193826    -0.0120322             0
     0.186921      0.193826    -0.0120322             0
     0.187284      0.169761    -0.0105916             0
     0.187647      0.145165   -0.00872228             0
      0.18801      0.218677    -0.0117282             0
     0.188373      0.218677    -0.0117282             0
     0.188736      0.218677    -0.0117282             0
     0.189099      0.218677    -0.0117282             0
     0.189462      0.152397   -0.00847517   1.69034e-20
     0.189825      0.208618    -0.0102072   6.82133e-21
     0.190188      0.243468    -0.0114189             0
     0.190551      0.243468    -0.0114189             0
     0.190914      0.243468    -0.0114189             0
     0.191277      0.208892   -0.00999455  -1.22501e-23
      0.19164      0.176296   -0.00834709  -2.57785e-23
     0.192003      0.268139    -0.0110901             0
     0.192365      0.268139    -0.0110901             0
     0.192728      0.268139    -0.0110901             0
     0.193091      0.268139    -0.0110901             0
     0.193454      0.188462   -0.00828463  -1.58598e-20
     0.193817      0.239942   -0.00935867  -8.52058e-21
      0.19418      0.292604    -0.0107146             0
     0.194543      0.292604    -0.0107146             0
     0.194906      0.292604    -0.0107146             0
     0.195269      0.263726   -0.00983298             0
     0.195632      0.186679   -0.00737555             0
     0.195995      0.305834    -0.0100078             0
     0.196358      0.316594    -0.0102455             0
     0.196721      0.316594    -0.0102455             0
     0.197084      0.316594    -0.0102455             0
     0.197447      0.245227   -0.00832318             0
      0.19781      0.244754   -0.00780376             0
     0.198173      0.339977   -0.00954352             0
     0.198536      0.339977   -0.00954352             0
     0.198899      0.339977   -0.00954352             0
     0.199262      0.339977   -0.00954352             0
     0.199625      0.224789   -0.00677884   4.01553e-21
     0.199987      0.300616   -0.00754046   -3.0376e-19
      0.20035      0.360671   -0.00836471  -4.83792e-19
     0.200713      0.360671   -0.00836471  -4.83792e-19
     0.201076      0.360671   -0.00836471  -4.83792e-19
     0.201439      0.328785   -0.00764185  -3.81499e-19
     0.201802      0.213379   -0.00493703   4.77863e-21
     0.202165      0.353827   -0.00565689   7.77952e-22
     0.202528      0.381138   -0.00579687             0
     0.202891      0.381138   -0.00579687             0
     0.203254      0.381138   -0.00579687             0
     0.203617      0.315129   -0.00423318  -1.80495e-20
      0.20398      0.248912   -0.00105326  -3.60281e-20
     0.204343      0.378882    0.00202607             0
     0.204706      0.378882    0.00202607             0
     0.205069      0.378882    0.00202607             0
     0.205432      0.378882    0.00202607             0
     0.205795      0.293455    0.00305872    2.1657e-18
     0.206158      0.269082    0.00785145   1.33437e-17
     0.206521      0.293917     0.0114744   2.25432e-17
     0.206884      0.217608    0.00849532   1.66904e-17
     0.207247        0.1413    0.00551627   1.08376e-17
      0.20761     0.0649913    0.00253723   4.98479e-18
